,detected_matches,valid_matches,inlier_rate,detection_time,EulerZ_error(degree),EulerY_error(degree),EulerX_error(degree),t1_error(m),t2_error(m),t3_error(m),delta_R(Rodrigues),delta_T(degree)
0,4255,4246,0.9978848413631022,0.3380481150088599,-0.0733014780315621,0.02813030308763363,0.020483302860330194,-0.001684620325493676,-0.00038570082397878207,-0.00072504106070727,0.08113722318620607,88.34956324899474
1,4254,4189,0.9847202632816173,0.19533897600194905,-0.005765144765767273,0.030788861562859777,0.017035528088846667,0.000604976294045171,-0.0014962436050988453,0.00105054802457072,0.03565595786061419,34.13381480513658
2,4255,4255,1.0,0.2776343269943027,0.2366795588249419,-0.015742911123583097,-0.009568552576055387,0.0009966832516763685,-0.0037728262951204927,-0.0025387680050591543,0.2373967813433985,86.14083454080227
3,4255,4255,1.0,0.22381497800233774,-0.0891615615753091,0.009861101364567136,-0.162669897808944,-0.0016022026724512267,0.0005809376108570226,-0.00010914518127814809,0.18577139674224985,67.30133435648145
4,4255,4255,1.0,0.21489599099732004,0.10464085309552147,-0.02142691799488599,-0.059904347925225955,0.0005122069584785833,-0.00234522557197681,-0.0006638178042101987,0.12247324171802007,89.14798425278364
5,4255,4255,1.0,0.22270601500349585,-0.13246466655972416,0.11690602419531675,0.0106168601857132,0.0005323665055552958,0.0001312996286549783,0.002467934603879857,0.17698516433854403,73.49698833298521
6,4255,4255,1.0,0.25445550300355535,-0.07926412336825653,0.017498970847934024,0.04163627890017173,-0.0014977980105662122,-0.0006355086914624335,-0.0011059093775377254,0.09122273131716781,74.78761924128091
7,4256,3310,0.7777255639097744,0.28840486200351734,0.17653293675830353,0.074936239949006,0.02696471032931056,0.0003184899715436845,-0.0027857182647646455,-0.0008362237802017039,0.193681785357859,84.35988900142829
8,4256,3770,0.8858082706766918,0.28036130699911155,0.19199758793064375,0.15290123010255754,-0.01837757473546068,-0.00037040576980646,-0.0033252877170613965,-0.001111419456446763,0.24611004987056878,73.04480022643095
9,4194,4194,1.0,0.26715418900130317,0.396474910329534,0.15095695322908717,0.01297195187639646,-0.0004032341337541776,-0.007280842286987731,-0.0019093396903597207,0.42445504642570303,73.57109446614463
10,3578,2224,0.62157629960872,0.19856104400241747,-1.2757904759936625,0.6105025772340479,0.04059490413793849,-0.01116584474784918,0.0535536684135129,0.060621476298811115,1.4147209460059047,70.85050268442468
11,2694,1041,0.38641425389755013,0.18027678100042976,2.568651098495903,-1.6595713834545494,-4.918545591633268,-0.09988197929770547,0.23724572128992497,0.02669046770418025,5.8227121136275315,82.9070503711876
12,1999,625,0.31265632816408206,0.16274865200102795,1.6970869863003122,-4.090820145867806,-8.03097572275624,-0.1916076615562501,0.35844147166825896,0.06622438998325329,9.222323297570309,65.26260814729187
13,1400,671,0.47928571428571426,0.14308253899798729,1.5262699810537317,0.13297341917529296,-0.5357328369706854,-0.04514304205252475,0.052595768795407276,-0.02197638531415367,1.6224289926750342,80.73727024742264
14,1699,658,0.38728663919952916,0.18252175700035878,-0.0889401024208849,0.20028951852286342,0.7813612322249837,-0.040075478568726286,0.07690923912648613,-0.02734050490727918,0.8113617711642461,72.39828959476868
15,2443,1100,0.4502660663119116,0.18939818101353012,2.02136162285249,0.03654495651260671,2.302940732654746,-0.022420435065031854,0.06881159612793702,-0.04097590077258612,3.0648316564825,62.189995050195364
16,1918,661,0.34462982273201254,0.5226126460038358,-0.9547009435859725,-0.17044990537431295,-1.2209677334917928,-0.0025882399179975846,-0.059910458026886784,-0.0031310619716830353,1.558128772324548,84.06852118202417
17,591,138,0.233502538071066,0.27692526500322856,1.2991982170502672,-1.5824624849984255,-6.2966025303686015,0.0519400334869003,0.06723094739060369,0.04068063864057941,6.637839988802025,49.77372733937122
18,2282,675,0.2957931638913234,0.2308432179997908,-0.35607723994004,-0.5991676136049264,2.374258939628188,-0.023267217905739677,-0.25324456565141595,-0.030268730256531425,2.476220628486503,75.61851096925041
19,531,153,0.288135593220339,0.15677273798792157,1.988081999032223,0.8517183481233862,6.368782123103118,0.04478838549736876,-0.019236429122092367,-0.12432587394224845,6.739629738372985,33.681495739114354
20,1453,345,0.23743977976600136,0.1840328170073917,2.6717022774540835,-0.7389536293008723,2.518104920999789,-0.01945720418241105,0.17781575046262982,-0.09129076088456002,3.733201674895861,69.05646779356586
21,3430,2274,0.6629737609329446,0.26394304500718135,0.8881067447321075,-0.06994912849962279,0.4375764065069035,0.004268727679678958,-0.008956669723579218,-0.0030226378724160356,0.9922808017506548,89.3986987462612
22,1549,526,0.3395739186571982,0.16615667199948803,-0.6512365949366327,0.5659990201422203,-0.46801974669246166,0.016967425888833827,-0.13622615069303756,-0.018531215505122357,0.9831122958148193,88.05482109311994
23,622,164,0.26366559485530544,0.14405993300897535,0.07694372038840287,-0.7686924551149038,-7.270819348497308,-0.0013332738709201505,0.013542905123346997,0.0989591370252327,7.312203966262131,27.240819308225426
24,2119,549,0.25908447380840016,0.1787029650004115,1.207735277047077,-0.8301680796633296,1.6599779795036285,0.05296606488830762,-0.25768153542200956,-0.26986247101503,2.207737891785728,33.482138766019375
25,793,185,0.23329129886506936,0.13583938000374474,3.4242702969776317,0.8023081076469089,7.551776758540296,0.06771658991249824,-0.040129063201188656,-0.12720428750465404,8.351207093308686,44.80848821033871
26,1933,784,0.40558717020175894,0.1689393279957585,2.8667699604434937,0.0010662394515362729,5.161098705002794,0.017930956582872696,-0.01690670247747872,-0.07467151492289774,5.903391254193387,46.73520760532878
27,1964,719,0.36608961303462323,0.18940267100697383,-1.9414526939264714,1.612273486828836,0.1690430191920743,0.03759215400314426,-0.04529328768647427,0.02499970822598839,2.527400144223526,88.93812601093428
28,834,242,0.290167865707434,0.14684482199663762,-0.8248847436262021,-0.15933637445523735,0.6631419259803413,-0.0020194326477334214,-0.2304434560438912,-0.006015337358173213,1.0710242933011769,54.21085613767556
29,1487,265,0.17821116341627438,0.16718487000616733,-1.3853204414738478,0.5001930047004468,8.566489134153441,0.036658869286369175,-0.4353732161926096,-0.010836695929739681,8.685987860702081,62.9229175977669
30,412,81,0.1966019417475728,0.16077935000066645,-0.7155489467758999,1.3876459351784838,16.700176329578174,0.18404420282843598,-1.0525289373037865,-1.1123518943334771,16.76385226522148,32.89265200365156
31,1082,362,0.3345656192236599,0.17118589500023518,3.8934122436823113,2.159665457832848,9.759857466874154,0.04577112845457547,-0.024983358129576146,-0.2007550643547839,10.791672970834284,34.11253217836219
32,3299,2562,0.776598969384662,0.24757079099072143,0.5691391282945127,-0.11872801976167784,0.3791402019275245,0.001877108074150132,-0.005664383501292942,-0.001224564325400885,0.6937683243928955,70.25877089822023
33,1348,476,0.35311572700296734,0.17022130299301352,1.6894749930253052,-1.3673809425802164,-6.0606065736996335,0.013634322390402543,0.030317963435132426,0.06259023135679712,6.457153427617284,14.653355246830746
34,603,212,0.351575456053068,0.15761876199394464,0.12841050693005152,-1.45918501122921,-3.081756545852223,-0.0077438379216724085,-0.0005127432776673383,0.06462671790227943,3.4135749044386614,20.48884351349512
35,1845,510,0.2764227642276423,0.16645937999419402,3.365105851890353,-3.220676203882974,-4.052169193326891,0.04482719895762326,0.2841311374274683,0.277405504865913,6.234680644060445,39.07656139872463
36,2543,1028,0.40424695241840347,0.19042199999967124,2.1523800939099886,-1.7333803889404906,-0.5940206421373306,-0.0204786217963836,-0.18670463986657165,-0.13654475571088767,2.833454936344129,48.44749877321851
37,3166,1671,0.5277953253316487,0.19499863700184505,-2.274061689088991,1.218038368571916,-0.3806860382034914,-0.03010561159467504,0.0705385509387092,0.04566621457619926,2.6111454280981,51.19706669752618
38,2700,1534,0.5681481481481482,0.9419915339967702,-0.7306069407537862,0.8004711860673911,1.0632650264059518,-0.06905465416920102,0.015733647188810235,0.08203267348345868,1.5146543447753609,40.360338886632654
39,4248,3920,0.9227871939736346,0.4533141309948405,0.2177305781207914,-0.2700828622238224,-0.10829757168857448,-0.004334774363233609,-0.0014905575519817405,-0.00973916760569932,0.363580456465016,77.22700544771159
40,4256,3985,0.9363251879699248,0.29916974999650847,0.09171135311242389,-0.22953320782420772,-0.1463523332746702,0.0002378652319245105,-0.004077486266524087,-0.015610649118908772,0.2873485644411109,43.592089368718064
41,4256,4026,0.9459586466165414,0.27474972799245734,-0.14480535237559566,-0.11074901569644761,-0.10953134254568447,3.233395173641798e-05,-0.001736337875211238,-0.012812529315871814,0.21260379846647245,67.06957650801237
42,4256,4248,0.9981203007518797,0.260743275997811,-0.161814438825544,-0.095632248723981,-0.05837985490742377,2.246815159278161e-05,-0.001780563092017697,-0.014053943236469768,0.19677873486215156,77.94171323515896
43,4256,4227,0.9931860902255639,0.2612857709900709,-0.1956686819589203,-0.09304884172782799,0.04180016119419098,6.356553425895188e-05,-0.0015305659312859347,-0.014835386970484992,0.22069174376951428,75.05563578073954
44,4256,4048,0.9511278195488722,0.26832219200150575,-0.14131679406049186,-0.031138223485052928,0.06568744341022706,-3.691437378431896e-05,-0.0017524582873919435,-0.01491894675351244,0.15893365759165556,66.5868168527147
45,4256,4256,1.0,0.24515225600043777,-0.07198914716327061,0.021144602436488573,0.03681496939586219,-0.0005237001040753351,0.0009513200343327028,-0.016829888837757507,0.08356970246836583,74.17706719472191
46,4256,4256,1.0,0.2462271380063612,-0.112140206428769,-0.042952796407855084,0.173507968372837,8.472428127979194e-05,-0.0015403991780825416,-0.015876688470423794,0.21104492072350978,69.2241164244537
47,4256,4256,1.0,0.2500401199940825,-0.17983212023561426,-0.07305341858530208,0.25280961771330784,5.072428127948038e-05,-0.0015093991780826493,-0.015936688470423854,0.3188212625935155,69.09109540607592
48,4256,3793,0.8912124060150376,0.23771136499999557,-0.18637533391303238,-0.045393433988339185,0.20901779169587847,0.00028207973162128414,-0.0014220514495976975,-0.016005833662982694,0.2837526860608792,74.23059590368254
49,4256,4164,0.9783834586466166,0.23716759899980389,-0.2043159201235041,-0.06743086917293677,0.3034871603682778,0.0003430797316209288,-0.0015710514495976523,-0.01635183366298265,0.3721145476328379,74.78775441937654
50,4256,4256,1.0,0.27009224600624293,-0.19846526613571125,-0.027185384853057288,0.3266700587358814,0.00035726565038794,-0.0016308062183140034,-0.015882554830164156,0.3832381586804921,72.92336985715217
51,4256,4036,0.9483082706766918,0.30979700198804494,-0.20677426637771834,0.03413847400017509,0.3062938930566055,0.0005442656503874331,-0.0015788062183138404,-0.01599855483016405,0.37107834704461923,72.92861391353952
52,4256,4256,1.0,0.2827840950048994,-0.2400524912262,0.15893564158093337,0.38884920161427183,0.0005677616124607723,-0.001755910129568738,-0.01604119414539193,0.4835598732614146,73.28085902300282
53,4256,3841,0.9024906015037594,0.2700337179994676,-0.22043545886412141,0.21431564573053735,0.35258241775345023,0.00015565218133050377,-0.0015377101026370467,-0.01622966279069484,0.4674893310312371,86.12059298996124
54,4256,3767,0.8851033834586466,0.25670377298956737,-0.13464738741547325,0.3599581334492704,0.2986688894091477,-0.0008251014264897343,-4.367799187039197e-05,-0.01614475589528089,0.4864666887937578,55.00390981418357
55,4256,3491,0.8202537593984962,0.252120287012076,0.013248601085210348,0.3878443920585283,0.187832855998753,0.00028485499870548205,-0.0026194583207903802,-0.015031743702916081,0.4311573835117635,83.95949646409468
56,4256,3813,0.8959116541353384,0.2579970349906944,-0.04137585369674232,0.45211574134797355,0.20397331713715056,0.0007413319487679415,-0.0010112470180871954,-0.013057564923713526,0.4976533899368814,64.05386912030193
57,4256,4222,0.9920112781954887,0.9177026139950613,-0.006656792535051157,0.45087594239895956,0.21953246366094942,0.0006483319487673767,-0.001061247018087301,-0.012123564923713425,0.501513890074248,64.04348270610977
58,4256,3954,0.9290413533834586,0.31610494300548453,-0.03560107187153631,0.49468922620111155,0.27190539708109135,-0.0010845068877603583,-0.0006765731734126614,-0.01259608134708571,0.5655381193751976,55.12830820488462
59,4256,4170,0.9797932330827067,0.27794576599262655,-0.04644411716383025,0.4585289397564595,0.15478107002923897,0.0003153824022658577,-0.0013820608591574802,-0.009831100728222606,0.4861124908177093,87.67055308533935
60,4256,3760,0.8834586466165414,0.2766913469968131,-0.13199656006498975,0.41716598300564944,0.08188573227194686,0.00027773870310963874,-0.00145085220536012,-0.008268910428010071,0.4450584410751754,79.88491170221664
61,4256,4023,0.9452537593984962,0.26014992999262176,-0.12915054806681128,0.3957936231561621,-0.029087447360716404,0.00031573870310962123,-0.0014128522053599155,-0.006571910428010122,0.4173780256712524,79.96998279722041
62,4256,3921,0.9212875939849624,0.2543681950046448,-0.04287914787256934,0.40361353241962417,-0.14174828359324962,0.0005399202256025389,-0.001839558094459205,-0.0041787053136874966,0.42997419122770225,84.06850997827365
63,4256,3874,0.9102443609022557,0.24448653899889905,-0.14467832339782313,0.35473417329526463,-0.20595265907643512,0.0004394064018550829,-0.00011261518105753723,-0.0036244128367720766,0.4351653762600289,16.555067028092566
64,4256,4256,1.0,0.24435036900104024,-0.03348834270797174,0.13545884972133568,-0.1665158811679679,0.0006178558841562829,-0.0020135442356793046,-0.0004365638359371619,0.21728156119945757,53.42624454318731
65,4256,4082,0.9591165413533834,0.24770183800137602,0.00948936745364423,0.034598573882733706,-0.1895817222902135,0.0006798558841569555,-0.0021065442356792033,0.0016534361640627633,0.19294364727201288,83.50572709857188
66,4256,3919,0.9208176691729323,0.2634649259998696,-0.014444896014047505,-0.03757224647091723,-0.2059035233137559,0.0008817941063220733,-0.0019327898759923365,0.0048827358257090845,0.209796657549662,60.1280741485121
67,4256,4256,1.0,0.2608779760048492,-0.08798146948315314,-0.2215290013094233,-0.0846075726257092,0.0001583269070895951,-4.0068080752697806e-05,0.0063991526735795844,0.2528744304778799,65.24120439871943
68,4256,3715,0.8728853383458647,0.24288242199691013,-0.02255377707059266,-0.3187021337575786,-0.0611965936111359,0.0008210254305173199,-0.00285266023052823,0.008882033677325091,0.32529533903568913,73.43680294915643
69,4256,4256,1.0,0.2569600040005753,0.021635314760897605,-0.33427774434360474,-0.12471670099803187,0.000963842439255475,-0.0026217600808871684,0.0111485594583137,0.3574627946306877,59.43194148494081
70,4256,4231,0.994125939849624,0.30121856700861827,0.026041119400407084,-0.3828745291182392,-0.1530886428090191,0.0007778711927768275,-0.0029740191652294526,0.012581165614071394,0.41319937985686866,80.30903578120457
71,4256,3697,0.8686560150375939,0.24367866800457705,0.0014237870342641416,-0.487131380222182,-0.09702434078491523,-0.0006862306728228657,-0.0018372613179457552,0.013169231970656302,0.49670297883082504,44.32351312755521
72,4256,3212,0.7546992481203008,0.3111772559932433,0.029771856882379953,-0.610429792657893,-0.2514761139114579,-0.0007324176855388104,-0.001167823838236712,0.012479963326248573,0.6609313797443859,19.3389015187979
73,4256,2925,0.6872650375939849,0.2669413319963496,-0.00263676658972219,-0.5526426976074754,-0.37953443727804276,0.0014636761091956644,-0.0033438205545713792,0.019636836142947634,0.6704151872880427,36.18293681355661
74,4256,4047,0.9508928571428571,0.2488297850068193,0.10046395792588889,-0.6979708926008612,-0.3236163234698698,0.0005891948830044736,-0.0010783884645134442,0.014782810402300376,0.7761304701372446,4.296572401711686
75,3989,3777,0.9468538480822262,0.251077091001207,-0.03590639584923281,-0.7026621547726088,-0.7615601783924919,0.002091102823815929,0.003469729324010915,0.021032628355801605,1.0366554986367076,65.05196291291338
76,3355,1659,0.4944858420268256,0.21894913099822588,-1.9058273279065583,-1.4475831703293862,-1.6390308621690703,0.0033661708300272825,-0.026485697781046296,0.03994995859413144,2.8869694172106084,50.085299402242015
77,2613,836,0.3199387676999617,0.1878349289909238,-1.8467147226517895,-4.274064824103679,-7.113422330886192,-0.3393761765920327,0.09552569019440817,0.12259627956581892,8.442120584070324,73.6487878298139
78,487,264,0.5420944558521561,0.1682296880026115,-1.4665046276289857,0.34491894818267205,2.3672099157822872,-0.015020710881765693,-0.04433045331602906,-0.01598609330302643,2.802152719050303,53.55419472765002
79,1026,377,0.36744639376218324,0.2984294899943052,0.4105475462476207,-0.6440914247385281,-0.40705892323527654,-0.02204298979415234,0.0581621247472326,0.02071503518396451,0.8665878133090257,86.83379020233453
80,2057,897,0.4360719494409334,0.353308047997416,0.6144367510934803,-0.01135896392750145,0.003527932973989148,-0.019619521739181977,0.05794290686240973,-0.042175657653809914,0.6145515131869697,47.09386819760071
81,2229,924,0.414535666218035,0.2547917240008246,1.4175919188563233,0.6787905620344007,2.3040134618240455,0.02760314347907898,0.005557119430258579,-0.04398602105292645,2.795914810905316,23.759235567793418
82,2389,954,0.3993302637086647,0.22538339499442372,0.4115068109105837,-0.10620882888223,0.6036769838988599,0.012715256382520268,-0.0024583205279589495,-0.021718331256262935,0.7379579004799961,17.706573203559774
83,2210,752,0.3402714932126697,0.24135398199723568,1.682636370287441,0.09193274775013605,1.1330609750806317,0.02780909487929738,-0.08163032462780208,-0.01340569926194491,2.0313812752720977,68.16887217849525
84,2857,921,0.3223661183059153,0.2425240360025782,0.26751324435804347,0.7371697289905694,0.6050013120859404,0.017453212318310443,0.005427756221192252,-0.007135955476666941,0.9915063019272836,40.32654071652242
85,3050,1933,0.6337704918032787,0.21825941400311422,-0.11145490067473353,-0.05364115699117861,-0.17412507155224147,-0.01025423612372804,0.02363501401005524,-0.009393166274768047,0.21354373618545996,53.14726211829166
86,2599,1448,0.5571373605232782,0.20260064699687064,0.874138860072389,0.30016409646779474,0.12891262124804168,0.013298819872705986,-0.007681642182048039,-0.005104705128096493,0.9335009055636337,41.42345158094915
87,3220,1879,0.5835403726708075,0.24606443700031377,-0.4029572517566158,0.9499388220049949,1.8452669755745355,0.014075236370559446,-0.033330058400528086,-0.007168120476344783,2.1112424803998375,61.33523277361441
88,2661,1347,0.5062006764374295,0.3037228100001812,0.6071661052429798,1.505769153555598,1.5319573852831672,0.02683947513904219,-0.015470127201791115,-0.014063755445661765,2.2376665506329254,49.43159272974839
89,3149,1783,0.5662114957129247,0.2772262310027145,0.04732521779891885,-0.2228588764688781,0.6333869779061316,-0.020518595346192436,0.020440563164626984,-0.030696084063954604,0.6730287477782381,41.24404098784652
90,2977,1180,0.39637218676519986,0.23085950600216165,-1.946197305168325,2.4556664194133973,4.559288950439665,0.03719353853625291,-0.08978755951104944,-0.01990610203082658,5.497184122909884,69.77073265766276
91,2974,1621,0.5450571620712845,0.23046196000359487,-0.9741836823755304,1.9141587131548985,1.2475631720471498,0.029368692260103666,-0.028775897758554846,-0.016818333264327117,2.4755964369753873,51.21105660756436
92,2842,1526,0.5369458128078818,0.2178335209900979,0.5343129294492397,0.046484726665233796,0.8983226115579966,0.006000079189798712,-0.0064569640809217866,-0.025370459991272458,1.0464311540912257,19.265345065749198
93,3101,2405,0.7755562721702677,0.23998232099984307,0.9070461811322514,0.575191674624,1.123788089584544,0.019932684186818858,-0.009864678422515566,-0.020101672736984662,1.5577763110989873,80.78884524668693
